Time (s),Bz (µT),Voltage (mV)
0.009999999776482582,562.4075317382812,0.012035583145916462
0.019999999552965164,566.9405517578125,0.0047095762565732
0.029999999329447746,572.349609375,0.0015698587521910667
0.03999999910593033,577.1356811523438,0.0020931449253112078
0.05000000074505806,581.51025390625,0.0047095762565732
0.05999999865889549,585.724609375,0.007849293760955334
0.07000000029802322,591.5397338867188,0.008895865641534328
0.07999999821186066,597.21826171875,0.006802720949053764
0.09000000357627869,601.9812622070312,-0.0005232864059507847
0.10000000149011612,605.5431518554688,-0.0141287287697196
0.10999999940395355,608.1058959960938,-0.03244374692440033
0.11999999731779099,605.2060546875,-0.05180533602833748
0.12999999523162842,598.8641967773438,-0.06855049729347229
0.14000000059604645,589.32080078125,-0.0774463638663292
0.15000000596046448,577.0989990234375,-0.08110936731100082
0.1599999964237213,563.7157592773438,-0.08110936731100082
0.17000000178813934,548.6560668945312,-0.07796964794397354
0.18000000715255737,534.3215942382812,-0.06959707289934158
0.1899999976158142,522.4177856445312,-0.05965463072061539
0.20000000298023224,512.947021484375,-0.048665620386600494
0.20999999344348907,503.9787902832031,-0.03976975381374359
0.2199999988079071,497.7142639160156,-0.029304029420018196
0.23000000417232513,493.6601867675781,-0.016221873462200165
0.23999999463558197,491.8163146972656,5.519162128679594e-17
0.25,492.35272216796875,0.019884876906871796
0.25999999046325684,495.7226257324219,0.04552590101957321
0.27000001072883606,505.06243896484375,0.07849293202161789
0.2800000011920929,520.3177490234375,0.11930926144123077
0.28999999165534973,543.3474731445312,0.16640502214431763
0.30000001192092896,574.7893676757812,0.22344322502613068
0.3100000023841858,614.9785766601562,0.2925170063972473
0.3199999928474426,666.8602294921875,0.37833595275878906
0.33000001311302185,735.6384887695312,0.4840397834777832
0.3400000035762787,822.0545043945312,0.6169544458389282
0.3499999940395355,929.1725463867188,0.7639979124069214
0.36000001430511475,1060.666015625,0.7917320728302002
0.3700000047683716,1222.9171142578125,0.7948718070983887
0.3799999952316284,1430.18505859375,0.7985348105430603
0.38999998569488525,1679.6077880859375,0.8016745448112488
0.4000000059604645,1963.947265625,0.8042909502983093
0.4099999964237213,2204.35302734375,0.8058608174324036
0.41999998688697815,2257.10595703125,0.8069073557853699
0.4300000071525574,2257.10595703125,0.8069073557853699
0.4399999976158142,2257.10595703125,0.8063840866088867
0.44999998807907104,2257.10595703125,0.8048142194747925
0.46000000834465027,2257.10595703125,0.8016745448112488
0.4699999988079071,2257.10595703125,0.7974882125854492
0.47999998927116394,2257.10595703125,0.7927786707878113
0.49000000953674316,2257.10595703125,0.7776033282279968
0.5,2257.10595703125,0.5489272475242615
0.5099999904632568,2257.10595703125,0.2103610634803772
0.5199999809265137,2257.10595703125,-0.09837781637907028
0.5299999713897705,2257.10595703125,-0.3354264795780182
0.5400000214576721,2257.10595703125,-0.5468341112136841
0.550000011920929,2257.10595703125,-0.8288853764533997
0.5600000023841858,2257.10595703125,-1.0711668729782104
0.5699999928474426,2257.10595703125,-1.0711668729782104
0.5799999833106995,2257.10595703125,-1.0711668729782104
0.5899999737739563,2257.10595703125,-1.0711668729782104
0.6000000238418579,2257.10595703125,-1.0711668729782104
0.6100000143051147,2257.10595703125,-1.0711668729782104
0.6200000047683716,2257.10595703125,-1.0711668729782104
0.6299999952316284,2251.96728515625,-1.0711668729782104
0.6399999856948853,2095.240478515625,-1.0711668729782104
0.6499999761581421,1939.1953125,-0.9947671294212341
0.6600000262260437,1805.7861328125,-0.7985348105430603
0.6700000166893005,1697.1759033203125,-0.6410256624221802
0.6800000071525574,1605.7447509765625,-0.4981684982776642
0.6899999976158142,1534.329345703125,-0.3589743673801422
0.699999988079071,1483.17919921875,-0.2271062284708023
0.7099999785423279,1449.824951171875,-0.1318681389093399
0.7200000286102295,1430.521484375,-0.0575614869594574
0.7300000190734863,1421.7135009765625,0.013605441898107529
0.7400000095367432,1424.447021484375,0.09680795669555664
0.75,1439.1910400390625,0.19780220091342926
0.7599999904632568,1468.8798828125,0.3233909010887146
0.7699999809265137,1516.220458984375,0.47462061047554016
0.7799999713897705,1584.549072265625,0.6457352042198181
0.7900000214576721,1679.143310546875,0.7786499261856079
0.800000011920929,1804.2266845703125,0.7896389365196228
0.8100000023841858,1949.5732421875,0.790162205696106
0.8199999928474426,2108.14697265625,0.790162205696106
0.8299999833106995,2233.851318359375,0.7896389365196228
0.8399999737739563,2257.10595703125,0.7885923385620117
0.8500000238418579,2257.10595703125,0.7838827967643738
0.8600000143051147,2257.10595703125,0.7587650418281555
0.8700000047683716,2257.10595703125,0.6431187987327576
0.8799999952316284,2257.10595703125,0.3945578336715698
0.8899999856948853,2257.10595703125,0.017791731283068657
0.8999999761581421,2257.10595703125,-0.42124542593955994
0.9100000262260437,2257.10595703125,-0.8278388381004333
0.9200000166893005,2257.10595703125,-1.0711668729782104
0.9300000071525574,2257.10595703125,-1.0711668729782104
0.9399999976158142,2257.10595703125,-1.0711668729782104
0.949999988079071,2257.10595703125,-1.0711668729782104
0.9599999785423279,2217.463134765625,-1.0491888523101807
0.9700000286102295,2096.978759765625,-0.9162741899490356
0.9800000190734863,1954.603271484375,-0.7781266570091248
0.9900000095367432,1830.89990234375,-0.6473050713539124
1,1723.3780517578125,-0.523809552192688
1.0099999904632568,1639.387451171875,-0.39926740527153015
1.0199999809265137,1572.6649169921875,-0.2715855538845062
1.0299999713897705,1525.02294921875,-0.13657771050930023
1.0399999618530273,1497.0035400390625,0.008895865641534328
1.0499999523162842,1488.414306640625,0.16588173806667328
1.059999942779541,1508.5745849609375,0.31606489419937134
1.0700000524520874,1552.31787109375,0.44583988189697266
1.0800000429153442,1616.739013671875,0.5442177057266235
1.090000033378601,1697.7930908203125,0.6017791628837585
1.100000023841858,1790.67333984375,0.6211407780647278
1.1100000143051147,1893.924072265625,0.6080586314201355
1.1200000047683716,2001.64208984375,0.5583463907241821
1.1299999952316284,2105.099609375,0.46677133440971375
1.1399999856948853,2195.317138671875,0.31501832604408264
1.149999976158142,2257.10595703125,0.07169021666049957
1.159999966621399,2257.10595703125,-0.2490842491388321
1.1699999570846558,2257.10595703125,-0.581371009349823
1.1799999475479126,2232.707275390625,-0.8424908518791199
1.190000057220459,2150.6865234375,-0.9973835945129395
1.2000000476837158,2009.8140869140625,-1.0376765727996826
1.2100000381469727,1849.9388427734375,-0.9984301328659058
1.2200000286102295,1686.2071533203125,-0.912611186504364
1.2300000190734863,1534.0450439453125,-0.8069073557853699
1.2400000095367432,1394.4864501953125,-0.70277339220047
1.25,1269.5428466796875,-0.6143380403518677
1.2599999904632568,1161.12744140625,-0.529565691947937
1.2699999809265137,1066.760986328125,-0.44479331374168396
1.2799999713897705,988.2944946289062,-0.37257981300354004
1.2899999618530273,922.0960693359375,-0.3124018907546997
1.2999999523162842,865.9883422851562,-0.270015686750412
1.309999942779541,817.584228515625,-0.24751439690589905
1.3200000524520874,773.9034423828125,-0.24175824224948883
1.3300000429153442,734.8470458984375,-0.24175824224948883
1.340000033378601,695.2251586914062,-0.23861852288246155
1.350000023841858,654.873779296875,-0.22867608070373535
1.3600000143051147,614.9367065429688,-0.21297749876976013
1.3700000047683716,577.6343994140625,-0.19413919746875763
1.3799999952316284,542.3959350585938,-0.17739403247833252
1.3899999856948853,510.6565856933594,-0.162742018699646
1.399999976158142,481.29351806640625,-0.14913657307624817
1.409999966621399,454.07037353515625,-0.13710099458694458
1.4199999570846558,429.9329528808594,-0.1261119842529297
1.4299999475479126,406.41253662109375,-0.11773940175771713
1.440000057220459,385.6922912597656,-0.11250653862953186
1.4500000476837158,365.5732116699219,-0.11041339486837387
1.4600000381469727,345.7242431640625,-0.10779696702957153
1.4700000286102295,326.8603515625,-0.10361067205667496
1.4800000190734863,308.52239990234375,-0.09680795669555664
1.4900000095367432,290.85565185546875,-0.08791209012269974
1.5,274.80194091796875,-0.07796964794397354
1.5099999904632568,260.60125732421875,-0.06959707289934158
1.5199999809265137,248.1448211669922,-0.061747774481773376
1.5299999713897705,237.2103729248047,-0.05494505539536476
1.5399999618530273,228.43643188476562,-0.04971219226717949
1.5499999523162842,220.31275939941406,-0.04604918882250786
1.559999942779541,213.06393432617188,-0.042909473180770874
1.5700000524520874,206.99195861816406,-0.03819989413022995
1.5800000429153442,202.15118408203125,-0.03244374692440033
1.590000033378601,198.07952880859375,-0.02459445409476757
1.600000023841858,194.95068359375,-0.01726844534277916
1.6100000143051147,193.9373321533203,-0.010465724393725395
1.6200000047683716,195.0315704345703,-0.0041862898506224155
1.6299999952316284,196.99752807617188,0.0005232862313278019
1.6399999856948853,200.0728302001953,0.005232862196862698
1.649999976158142,204.41009521484375,0.007849293760955334
1.659999966621399,209.6507110595703,0.010989011265337467
1.6699999570846558,215.34573364257812,0.015175300650298595
1.6799999475479126,221.28472900390625,0.02093144878745079
1.690000057220459,229.7703094482422,0.027210883796215057
1.7000000476837158,238.4501495361328,0.03401360660791397
1.7100000381469727,248.4660186767578,0.03976975381374359
1.7200000286102295,259.98541259765625,0.04343275725841522
1.7300000190734863,272.55206298828125,0.04447932913899422
1.7400000095367432,284.6824645996094,0.042909473180770874
1.75,297.3855285644531,0.04029304161667824
1.7599999904632568,309.6392822265625,0.037153322249650955
1.7699999809265137,320.870361328125,0.03401360660791397
1.7799999713897705,330.8699645996094,0.030873887240886688
1.7899999618530273,339.9250183105469,0.026164311915636063
1.7999999523162842,349.53570556640625,0.023547880351543427
1.809999942779541,358.1897888183594,0.022501308470964432
1.8200000524520874,365.9566955566406,0.022501308470964432
1.8300000429153442,373.375,0.024071166291832924
1.840000033378601,381.286865234375,0.024071166291832924
1.850000023841858,389.0890197753906,0.019884876906871796
1.8600000143051147,396.6170654296875,0.013605441898107529
1.8700000047683716,403.3016662597656,0.0094191525131464
1.8799999952316284,409.03497314453125,0.0094191525131464
1.8899999856948853,414.15863037109375,0.013082155957818031
1.899999976158142,420.30926513671875,0.0193615909665823
1.909999966621399,426.4598693847656,0.0282574575394392
1.9199999570846558,434.36590576171875,0.0387231819331646
1.9299999475479126,444.2055358886719,0.048665620386600494
1.940000057220459,455.9160461425781,0.05703819915652275
1.9500000476837158,470.2105407714844,0.06331763416528702
1.9600000381469727,484.8738098144531,0.06855049729347229
1.9700000286102295,500.9432067871094,0.0763997882604599
1.9800000190734863,518.3045043945312,0.08791209012269974
1.9900000095367432,537.2146606445312,0.10099424421787262
2,558.7418212890625,0.11250653862953186
2.009999990463257,582.4038696289062,0.12140240520238876
2.0199999809265137,607.936279296875,0.13082155585289001
2.0299999713897705,634.8717041015625,0.1428571492433548
2.0399999618530273,663.4183959960938,0.15855573117733002
2.049999952316284,694.3515625,0.18001046776771545
2.059999942779541,728.8633422851562,0.20460492372512817
2.069999933242798,768.3770751953125,0.2312925159931183
2.0799999237060547,811.90625,0.2569335401058197
2.0899999141693115,858.93359375,0.26635268330574036
2.0999999046325684,908.61376953125,0.24542124569416046
2.109999895095825,957.9895629882812,0.2014652043581009
2.119999885559082,998.4990234375,0.14809000492095947
2.130000114440918,1030.8856201171875,0.09262166172266006
2.140000104904175,1054.085205078125,0.04186289757490158
2.1500000953674316,1067.819091796875,-0.0015698596835136414
2.1600000858306885,1073.571044921875,-0.04186289757490158
2.1700000762939453,1070.0474853515625,-0.07430664449930191
2.180000066757202,1061.1767578125,-0.09837781637907028
2.190000057220459,1048.146240234375,-0.11041339486837387
2.200000047683716,1032.2857666015625,-0.12087912112474442
2.2100000381469727,1015.20068359375,-0.13814756274223328
2.2200000286102295,994.1961669921875,-0.1684981733560562
2.2300000190734863,969.1416015625,-0.20198848843574524
2.240000009536743,937.8078002929688,-0.2271062284708023
2.25,900.5654907226562,-0.23757195472717285
2.259999990463257,859.9466552734375,-0.23547880351543427
2.2699999809265137,820.0245971679688,-0.22553636133670807
2.2799999713897705,780.7596435546875,-0.2114076465368271
2.2899999618530273,742.8770751953125,-0.19570904970169067
2.299999952316284,707.2539672851562,-0.18105703592300415
2.309999942779541,674.59033203125,-0.16902145743370056
2.319999933242798,645.0332641601562,-0.15907901525497437
2.3299999237060547,617.2412719726562,-0.15436944365501404
2.3399999141693115,590.3446044921875,-0.15122972428798676
2.3499999046325684,564.3984985351562,-0.14704343676567078
2.359999895095825,539.4386596679688,-0.14128728210926056
2.369999885559082,515.1779174804688,-0.13448455929756165
2.380000114440918,493.39788818359375,-0.12977498769760132
2.390000104904175,470.6209716796875,-0.12558870017528534
2.4000000953674316,448.5278015136719,-0.12140240520238876
2.4100000858306885,427.988525390625,-0.11773940175771713
2.4200000762939453,408.3962097167969,-0.1130298301577568
2.430000066757202,388.634521484375,-0.10832025110721588
2.440000057220459,370.0625,-0.10151752829551697
2.450000047683716,352.3296203613281,-0.09366823732852936
2.4600000381469727,335.8489074707031,-0.0852956548333168
2.4700000286102295,321.3808898925781,-0.07692307978868484
2.4800000190734863,308.396240234375,-0.06855049729347229
2.490000009536743,296.4103698730469,-0.060177918523550034
2.5,286.2972717285156,-0.050235480070114136
2.509999990463257,278.3199157714844,-0.03976975381374359
2.5199999809265137,272.5156555175781,-0.029304029420018196
2.5299999713897705,269.3833923339844,-0.0193615909665823
2.5399999618530273,268.446533203125,-0.009942438453435898
2.549999952316284,268.8938903808594,-1.0597425714742315e-14
2.559999942779541,271.5976867675781,0.010465724393725395
2.569999933242798,276.9032287597656,0.021454736590385437
2.5799999237060547,283.6803283691406,0.031397175043821335
2.5899999141693115,293.23956298828125,0.03976975381374359
2.5999999046325684,304.9393310546875,0.04971219226717949
2.609999895095825,318.74700927734375,0.06122449040412903
2.619999885559082,334.50225830078125,0.07378336042165756
2.630000114440918,351.9423522949219,0.0863422304391861
2.640000104904175,372.95697021484375,0.09890110045671463
2.6500000953674316,396.1611633300781,0.11145997047424316
2.6600000858306885,422.0022277832031,0.12192569673061371
2.6700000762939453,450.1197509765625,0.12872841954231262
2.680000066757202,479.6273193359375,0.12820513546466827
2.690000057220459,509.86785888671875,0.12349554896354675
2.700000047683716,538.5184326171875,0.11721611768007278
2.7100000381469727,565.765380859375,0.11355311423540115
2.7200000286102295,592.089599609375,0.11041339486837387
2.7300000190734863,617.7109375,0.10047096014022827
2.740000009536743,641.2313842773438,0.07953950762748718
2.75,660.82421875,0.04918890818953514
2.759999990463257,674.9205932617188,0.014128729701042175
2.7699999809265137,682.6460571289062,-0.02459445223212242
2.7799999713897705,683.4793090820312,-0.06436420977115631
2.7899999618530273,676.8731079101562,-0.10256410390138626
2.799999952316284,659.78369140625,-0.1339612752199173
2.809999942779541,637.4232788085938,-0.15227629244327545
2.819999933242798,611.1143798828125,-0.1637885868549347
2.8299999237060547,581.9303588867188,-0.17006802558898926
2.8399999141693115,550.742431640625,-0.1716378927230835
2.8499999046325684,518.394775390625,-0.1684981733560562
2.859999895095825,486.9079284667969,-0.1606488674879074
2.869999885559082,456.76031494140625,-0.14965985715389252
2.880000114440918,428.3240661621094,-0.13919414579868317
2.890000104904175,401.85443115234375,-0.12925170361995697
2.9000000953674316,377.7644958496094,-0.12087912112474442
2.9100000858306885,355.57794189453125,-0.11250653862953186
2.9200000762939453,334.6305236816406,-0.10361067205667496
2.930000066757202,315.3241271972656,-0.0941915214061737
2.940000057220459,298.0576477050781,-0.0842490866780281
2.950000047683716,282.6241455078125,-0.07430664449930191
2.9600000381469727,269.544189453125,-0.06488749384880066
2.9700000286102295,258.7760314941406,-0.05494505539536476
2.9800000190734863,249.54322814941406,-0.04604918882250786
2.990000009536743,241.7333221435547,-0.035583462566137314
3,236.60780334472656,-0.02459445409476757
3.009999990463257,234.77430725097656,-0.0141287287697196
3.0199999809265137,234.49403381347656,-0.0031397175043821335
3.0299999713897705,236.08811950683594,0.005232862196862698
3.0399999618530273,239.74649047851562,0.012035583145916462
3.049999952316284,245.4806365966797,0.0193615909665823
3.059999942779541,253.4536590576172,0.029827315360307693
3.069999933242798,263.3097839355469,0.04238618537783623
3.0799999237060547,275.18096923828125,0.05703819915652275
3.0899999141693115,289.317138671875,0.07064364105463028
3.0999999046325684,306.0545349121094,0.08320251107215881
3.109999895095825,326.7274475097656,0.09680795669555664
3.119999885559082,350.4153747558594,0.11145997047424316
3.130000114440918,376.22113037109375,0.13029827177524567
3.140000104904175,404.712890625,0.15436944365501404
3.1500000953674316,437.0960693359375,0.1805337518453598
3.1600000858306885,476.0499572753906,0.2004186362028122
3.1700000762939453,519.9257202148438,0.21245421469211578
3.180000066757202,565.9561767578125,0.21664050221443176
3.190000057220459,612.3238525390625,0.21245421469211578
3.200000047683716,657.6939086914062,0.20617477595806122
3.2100000381469727,701.431640625,0.19675563275814056
3.2200000286102295,742.6869506835938,0.18628990650177002
3.2300000190734863,781.2063598632812,0.162742018699646
3.240000009536743,815.9999389648438,0.1151229739189148
3.25,843.6209716796875,0.05128204822540283
3.259999990463257,859.001220703125,-0.042909469455480576
3.2699999809265137,857.8622436523438,-0.13971742987632751
3.2799999713897705,836.5661010742188,-0.21611721813678741
3.2899999618530273,800.71142578125,-0.27053898572921753
3.299999952316284,754.5643310546875,-0.28623756766319275
3.309999942779541,702.5934448242188,-0.2825745642185211
3.319999933242798,650.3701171875,-0.2637362778186798
3.3299999237060547,601.0496826171875,-0.22972266376018524
3.3399999141693115,557.08203125,-0.18995290994644165
3.3499999046325684,519.2317504882812,-0.15855573117733002
3.359999895095825,487.6518249511719,-0.13343799114227295
3.369999885559082,462.65069580078125,-0.11198325455188751
3.380000114440918,442.14739990234375,-0.09366823732852936
3.390000104904175,425.4660949707031,-0.0753532201051712
3.4000000953674316,412.4058532714844,-0.05546833947300911
3.4100000858306885,402.89984130859375,-0.035583462566137314
3.4200000762939453,397.097900390625,-0.016221873462200165
3.430000066757202,395.6171875,0.0005232859402894974
3.440000057220459,398.19854736328125,0.016745159402489662
3.450000047683716,403.62091064453125,0.03192045912146568
3.4600000381469727,411.6584777832031,0.04552590101957321
3.4700000286102295,422.7333068847656,0.05913134664297104
3.4800000190734863,436.7430419921875,0.07169021666049957
3.490000009536743,453.3473815917969,0.0842490866780281
3.5,472.2814025878906,0.09890110045671463
3.509999990463257,493.79132080078125,0.11564625799655914
3.5199999809265137,518.24169921875,0.13605442643165588
3.5299999713897705,546.4320678710938,0.1616954505443573
3.5399999618530273,579.9935302734375,0.18995290994644165
3.549999952316284,617.3170776367188,0.21507064998149872
