"Latest: Time (s)","Latest: Temperature (°C)"
0,6.37161730142
0.5,6.3316596961
1,6.2864540474
1.5,6.27775623915
2,6.26209658856
2.5,6.25687567676
3,6.25339478307
3.5,6.25687567676
4,6.25687567676
4.5,6.26035634178
5,6.27253686951
5.5,6.28297509522
6,6.2899327715
6.5,6.30210651073
7,6.31775436188
7.5,6.32818370347
8,6.34208631128
8.5,6.35077359686
9,6.35945946506
9.5,6.36640713984
10,6.37161730142
10.5,6.38377236485
11,6.38724473122
11.5,6.39592465834
12,6.40460317375
12.5,6.41501553032
13,6.42195597379
13.5,6.43236494904
14,6.44450619262
14.5,6.465313345
15,6.46878041763
15.5,6.47571388971
16,6.48091340501
16.5,6.49304364625
17,6.50343881243
17.5,6.51556396156
18,6.53461223723
18.5,6.55019216964
19,6.56057628439
19.5,6.56922818295
20,6.58306832964
20.5,6.58652781077
21,6.58825746806
21.5,6.60036351521
22,6.61592444091
22.5,6.62629589915
23,6.63493725954
23.5,6.64703284254
24,6.66258033087
24.5,6.67812335248
25,6.69020928514
25.5,6.69884044374
26,6.7109217574
26.5,6.7212750276
27,6.72645092201
27.5,6.73335134696
28,6.74542498122
28.5,6.76094428446
29,6.77128802639
29.5,6.78162980225
30,6.79196961387
30.5,6.80058462438
31,6.80747565227
31.5,6.81953285558
32,6.83158739436
32.5,6.83330925398
33,6.84191773758
33.5,6.84708217644
34,6.8591306356
34.5,6.86945577292
35,6.87461761063
35.5,6.89354018401
36,6.9072979494
36.5,6.91417553694
37,6.91417553694
37.5,6.91761400715
38,6.92792812436
38.5,6.9382403028
39,6.94511401223
39.5,6.94683230514
40,6.96401227857
40.5,6.96916522345
41,6.97946966471
41.5,6.99320591805
42,7.00007275947
42.5,7.01037141653
43,7.01208767222
43.5,7.02238408418
44,7.0258157942
44.5,7.03610964329
45,7.04125584769
45.5,7.04811670724
46,7.04983178891
46.5,7.05669158297
47,7.06183586949
47.5,7.07040861621
48,7.07383734263
48.5,7.07898003362
49,7.08412224642
49.5,7.0909777867
50,7.1046863202
50.5,7.11153931447
51,7.11839146111
51.5,7.1286680929
52,7.13038067969
52.5,7.1338056946
53,7.14236730679
53.5,7.1440794707
54,7.15263949809
54.5,7.15777488107
55,7.15948656988
55.5,7.16119820593
56,7.16633279767
56.5,7.17317818199
57,7.18002272335
57.5,7.18857721543
58,7.19370927927
58.5,7.20226166734
59,7.2091026319
59.5,7.21423280388
60,7.21594275621
60.5,7.21936250344
61,7.22449173079
61.5,7.22449173079
62,7.23303939429
62.5,7.23645809282
63,7.2398765818
63.5,7.2398765818
64,7.24158574773
64.5,7.24500392251
65,7.25013079211
65.5,7.26038311881
66,7.26380014276
66.5,7.26721695768
67,7.27063356363
67.5,7.27063356363
68,7.27575808089
68.5,7.28088212832
69,7.28600570615
69.5,7.28942116392
70,7.28942116392
70.5,7.29454395956
71,7.29795889606
71.5,7.30137362418
72,7.30478814397
72.5,7.30990953317
73,7.30990953317
73.5,7.30990953317
74,7.32015090665
74.5,7.32527089136
75,7.32868395464
75.5,7.33380315991
76,7.33550945779
76.5,7.34062803995
77,7.34062803995
77.5,7.34574615501
78,7.3474520896
78.5,7.34915797233
79,7.3508638032
79.5,7.3508638032
80,7.35256958221
80.5,7.35427530939
81,7.35768660824
81.5,7.35939217993
82,7.36280316789
82.5,7.36791926138
83,7.3713297315
83.5,7.3713297315
84,7.37303488893
84.5,7.37815005074
85,7.37985500122
85.5,7.38667428606
86,7.38326474704
86.5,7.39008361834
87,7.39349274395
87.5,7.39519722927
88,7.39860604499
88.5,7.40371888136
89,7.40542305693
89.5,7.41053527409
90,7.41735084164
90.5,7.41735084164
91,7.42246197609
91.5,7.42416558453
92,7.4292761008
92.5,7.43097950324
93,7.43268285421
93.5,7.43268285421
94,7.4343861537
94.5,7.4343861537
95,7.4377925983
95.5,7.44119883711
96,7.44801069763
96.5,7.44801069763
97,7.45311905328
97.5,7.45482173574
98,7.45652436683
98.5,7.45822694655
99,7.45652436683
99.5,7.45822694655
100,7.46163195196
100.5,7.45992947493
101,7.46163195196
101.5,7.45992947493
102,7.46503675201
102.5,7.46673907505
103,7.47014356721
103.5,7.476951936
104,7.476951936
104.5,7.48375948454
105,7.48375948454
105.5,7.48546124357
106,7.48886460795
106.5,7.48886460795
107,7.49056621332
107.5,7.49396927046
108,7.49567072224
108.5,7.50417721363
109,7.50417721363
109.5,7.50757945214
110,7.50757945214
110.5,7.51098148615
111,7.51268242649
111.5,7.51608415387
112,7.51948567691
112.5,7.51778494093
113,7.51778494093
113.5,7.52458757846
114,7.52798859091
114.5,7.52798859091
115,7.52798859091
115.5,7.53138939924
116,7.52458757846
116.5,7.53649022914
117,7.53479000351
117.5,7.53479000351
118,7.53819040378
118.5,7.53989052744
119,7.54499059258
119.5,7.54839038122
120,7.55178996612
120.5,7.55348968219
121,7.55178996612
121.5,7.56198749895
122,7.56028803738
122.5,7.56028803738
123,7.55688896158
123.5,7.55858852492
124,7.56538626948
124.5,7.56878483657
125,7.57048404384
125.5,7.57218320028
126,7.57388230589
126.5,7.57388230589
127,7.57728036466
127.5,7.57897931784
128,7.5823770718
128.5,7.5823770718
129,7.58747332191
129.5,7.58577462264
130,7.59087056818
130.5,7.59087056818
131,7.59256911519
131.5,7.59256911519
132,7.59766445186
132.5,7.59596605703
133,7.59766445186
133.5,7.60275933213
134,7.60445752417
134.5,7.60615566552
135,7.60445752417
135.5,7.61124978559
136,7.61804123662
136.5,7.61804123662
137,7.61973897281
137.5,7.62483187776
138,7.62313429337
138.5,7.62992432742
139,7.63331904103
139.5,7.64010786172
140,7.64180494058
140.5,7.64689587414
141,7.64689587414
141.5,7.65198635331
142,7.65368307876
142.5,7.65368307876
143,7.65877295242
143.5,7.66386237219
144,7.66725506664
144.5,7.67234373039
145,7.67403985088
145.5,7.67403985088
146,7.67573592102
146.5,7.67743194079
147,7.67743194079
147.5,7.68421551651
148,7.68251969807
148.5,7.69438937073
149,7.6960848371
149.5,7.69778025322
150,7.70456141521
150.5,7.71134177361
151,7.71473165161
151.5,7.71812132891
152,7.71642651534
152.5,7.7249000816
153,7.72828915713
153.5,7.72828915713
154,7.73337239456
154.5,7.74014934319
155,7.73845518115
155.5,7.75200707616
156,7.75200707616
156.5,7.7503132644
157,7.75708821143
157.5,7.76047538499
158,7.7587818232
158.5,7.76047538499
159,7.76386235867
159.5,7.76894244455
160,7.76894244455
160.5,7.77740825578
161,7.76894244455
161.5,7.76894244455
162,7.77063570663
162.5,7.76894244455
163,7.77232891878
163.5,7.77740825578
164,7.78079423095
164.5,7.77910126831
165,7.78248714372
165.5,7.78248714372
166,7.78248714372
166.5,7.78248714372
167,7.78756558281
167.5,7.78756558281
168,7.79264357327
168.5,7.7943361371
169,7.79941352969
169.5,7.80618268938
170,7.8095669706
170.5,7.81125903659
171,7.81464301934
171.5,7.81802680318
172,7.81802680318
172.5,7.82986848111
173,7.82986848111
173.5,7.83155995069
174,7.83325137062
174.5,7.83832533259
175,7.84508992056
175.5,7.84339884797
176,7.85016284082
176.5,7.84847191698
177,7.85016284082
177.5,7.85523531497
178,7.86030734323
178.5,7.85861671667
179,7.85861671667
179.5,7.86030734323
180,7.86030734323
180.5,7.86199792026
181,7.86368844778
181.5,7.86030734323
182,7.86199792026
182.5,7.86030734323
183,7.85861671667
183.5,7.86030734323
184,7.86199792026
184.5,7.85692604059
185,7.85523531497
185.5,7.85523531497
186,7.85523531497
186.5,7.85523531497
187,7.85692604059
187.5,7.85185371509
188,7.85016284082
188.5,7.84678094356
189,7.84847191698
189.5,7.84678094356
190,7.84170772579
190.5,7.84339884797
191,7.84508992056
191.5,7.84170772579
192,7.84001655399
192.5,7.84001655399
193,7.84001655399
193.5,7.84001655399
194,7.83663406156
194.5,7.83155995069
195,7.83325137062
195.5,7.83494274091
196,7.82648539296
196.5,7.82479377438
197,7.82479377438
197.5,7.81971862053
198,7.82310210612
198.5,7.82141038817
199,7.82310210612
199.5,7.82648539296
200,7.82986848111
200.5,7.82479377438
201,7.82817696187
201.5,7.82817696187
202,7.83155995069
202.5,7.82986848111
203,7.83325137062
203.5,7.83325137062
204,7.83663406156
204.5,7.84001655399
205,7.84001655399
205.5,7.84170772579
206,7.84339884797
206.5,7.84339884797
207,7.84847191698
207.5,7.85692604059
208,7.85185371509
208.5,7.85692604059
209,7.85692604059
209.5,7.85692604059
210,7.85523531497
210.5,7.84001655399
211,7.82817696187
211.5,7.81464301934
212,7.81125903659
212.5,7.80787485487
213,7.80787485487
213.5,7.80787485487
214,7.8095669706
214.5,7.81125903659
215,7.81125903659
215.5,7.8095669706
216,7.80787485487
216.5,7.80618268938
217,7.78925829614
217.5,7.78418000661
218,7.78079423095
218.5,7.77740825578
219,7.77740825578
219.5,7.77910126831
220,7.78248714372
220.5,7.78248714372
221,7.78079423095
221.5,7.78248714372
222,7.78587281964
222.5,7.79095095962
223,7.7977211153
223.5,7.80279820909
224,7.80787485487
224.5,7.81464301934
225,7.81802680318
225.5,7.82141038817
226,7.83325137062
226.5,7.84170772579
227,7.85354453981
227.5,7.86199792026
228,7.87214034292
228.5,7.87721088632
229,7.88735063829
229.5,7.89073016032
230,7.90086754143
230.5,7.9059355658
231,7.91607028316
231.5,7.92282577586
232,7.92620322673
232.5,7.94139931979
233,7.94815186046
233.5,7.95321575009
234,7.97009219141
234.5,7.98021570223
235,7.9937109737
235.5,7.99708430216
236,8.00888941144
236.5,8.01900617096
237,8.02237803354
237.5,8.02743546143
238,8.03249245034
238.5,8.04597560944
239,8.05440100107
239.5,8.06619450595
240,8.07630132873
240.5,8.07798562918
241,8.08977437331
241.5,8.09819344965
242,8.10324431383
242.5,8.10492783833
243,8.11166145205
243.5,8.11502796846
244,8.12344341278
244.5,8.12512635655
245,8.13522300422
245.5,8.14363554892
246,8.15036471589
246.5,8.15372900994
247,8.15877508938
247.5,8.16382073504
248,8.16886594713
248.5,8.17391072583
249,8.18231772781
249.5,8.18568019189
250,8.18904246365
250.5,8.19912812561
251,8.20585093973
251.5,8.20585093973
252,8.20921205882
252.5,8.20921205882
253,8.21257298599
253.5,8.21257298599
254,8.21257298599
254.5,8.21593372132
255,8.21593372132
255.5,8.21929426486
256,8.2243347207
256.5,8.22937474533
257,8.23105465776
257.5,8.2327345223
258,8.23441433897
258.5,8.23777382872
259,8.23441433897
259.5,8.22097446473
260,8.20921205882
260.5,8.20417030821
261,8.18399898389
261.5,8.17391072583
262,8.15709311111
262.5,8.14868249652
263,8.13690560973
263.5,8.1183942913
264,8.10492783833
264.5,8.0998771195
265,8.08809041257
265.5,8.07966988109
266,8.0611404385
266.5,8.04260511198
267,8.03586353249
267.5,8.02912117316
268,8.02406389162
268.5,8.02237803354
269,8.01226185997
269.5,8.00214392803
270,7.99708430216
270.5,7.99539766239
271,7.99202423609
271.5,7.98358981386
272,7.98358981386
272.5,7.97346689106
273,7.97852857293
273.5,7.96671729564
274,7.96334220368
274.5,7.95659143096
275,7.96165458411
275.5,7.95321575009
276,7.951527836
276.5,7.94646379901
277,7.94983987279
277.5,7.94477568841
278,7.94646379901
278.5,7.93971106174
279,7.94139931979
279.5,7.93464599257
280,7.93802275452
280.5,7.93971106174
281,7.94477568841
281.5,7.94646379901
282,7.94815186046
282.5,7.951527836
283,7.951527836
283.5,7.95490361508
284,7.95659143096
284.5,7.96334220368
285,7.96840476804
285.5,7.98021570223
286,7.98358981386
286.5,7.99033744954
287,7.99539766239
287.5,7.99877089301
288,8.00214392803
288.5,8.00551676748
289,8.00551676748
289.5,8.01563411312
290,8.02069212665
290.5,8.02406389162
291,8.02574970092
291.5,8.02912117316
292,8.03249245034
292.5,8.03754900045
293,8.04934591213
293.5,8.05440100107
294,8.0560859334
294.5,8.06619450595
295,8.08303823927
295.5,8.08303823927
296,8.08640640332
296.5,8.09650973134
297,8.09819344965
297.5,8.10324431383
298,8.10492783833
298.5,8.10829474203
299,8.12007738016
299.5,8.12512635655
300,8.13690560973
300.5,8.14531791304
301,8.15709311111
301.5,8.16886594713
302,8.18568019189
302.5,8.19912812561
303,8.20585093973
303.5,8.21257298599
304,8.21593372132
304.5,8.22601477681
305,8.23777382872
305.5,8.2461717158
306,8.25792674967
306.5,8.27807279258
307,8.2831082301
307.5,8.29485591672
308,8.30492350576
308.5,8.31331185533
309,8.31666686245
309.5,8.32002167953
310,8.32337630662
310.5,8.33008499112
311,8.3401465945
311.5,8.34852996021
312,8.35188297484
312.5,8.35523580005
313,8.36529313971
313.5,8.3686452078
314,8.37199708675
314.5,8.37534877663
315,8.37870027748
315.5,8.38372717447
316,8.38707820303
316.5,8.3887536465
317,8.39377969375
317.5,8.39377969375
318,8.39545494847
318.5,8.39377969375
319,8.40215549575
319.5,8.40550548652
320,8.4038305147
320.5,8.41220490263
321,8.41722897017
321.5,8.42392706789
322,8.42560147469
322.5,8.43062441288
323,8.43397280324
323.5,8.43564692792
324,8.44066902
324.5,8.44736448517
325,8.44903823408
325.5,8.45071193606
326,8.45071193606
326.5,8.45573276043
327,8.45907974212
327.5,8.47246579368
328,8.47748479
328.5,8.47915769513
329,8.48752151881
329.5,8.49253925169
330,8.50090120488
330.5,8.50257345535
331,8.50591781616
331.5,8.50758992652
332,8.51260597751
332.5,8.52263681972
333,8.52430846354
333.5,8.52932311531
334,8.53266598352
334.5,8.53266598352
335,8.53767993649
335.5,8.54102233901
336,8.54603559371
336.5,8.55773156007
337,8.55439008786
337.5,8.55773156007
338,8.56107284638
338.5,8.56107284638
339,8.56608442742
339.5,8.57276588539
340,8.57443613384
340.5,8.57443613384
341,8.58612657415
341.5,8.58612657415
342,8.58612657415
342.5,8.59113606744
343,8.59447549796
343.5,8.60449267816
344,8.61116987272
344.5,8.61283905573
345,8.6245220425
345.5,8.62619085579
346,8.63453422969
346.5,8.63620276601
347,8.63620276601
347.5,8.63620276601
348,8.63953970022
348.5,8.63787125618
349,8.63953970022
349.5,8.64454475561
350,8.64954939607
350.5,8.65455362178
351,8.65622160488
351.5,8.66122527789
352,8.66456082972
352.5,8.6712313812
353,8.67623381187
353.5,8.68457027701
354,8.68957160482
354.5,8.69623939914
355,8.69790623299
355.5,8.70623971418
356,8.71123925272
356.5,8.71957090059
357,8.72123709277
357.5,8.72623539467
358,8.72956736712
358.5,8.73623076314
359,8.74289342769
359.5,8.74289342769
360,8.74455897958
360.5,8.7495553612
361,8.75954689177
361.5,8.75621656413
362,8.76620699966
362.5,8.76787191264
363,8.76953678003
363.5,8.76953678003
364,8.77120160185
364.5,8.7761957939
365,8.78285407897
365.5,8.78451853642
366,8.7895116357
366.5,8.79117591113
367,8.79616846453
367.5,8.79783255805
368,8.80116060873
368.5,8.80116060873
369,8.81280735496
369.5,8.81613458806
370,8.82112509737
370.5,8.82445187676
371,8.82611519843
371.5,8.8344311268
372,8.83276803177
372.5,8.84108305395
373,8.84607152387
373.5,8.84773425665
374,8.85272218352
374.5,8.85438473534
375,8.8593721195
375.5,8.86934566754
376,8.87433183181
376.5,8.87599379628
377,8.87599379628
377.5,8.87931758982
378,8.87931758982
378.5,8.89094944633
379,8.8959338515
379.5,8.90590144568
380,8.90756255381
380.5,8.92084979936
381,8.92417116114
381.5,8.92915286684
382,8.93911506581
382.5,8.93911506581
383,8.94741566428
383.5,8.95239548528
384,8.95405533597
384.5,8.95571514185
385,8.95571514185
385.5,8.96567303654
386,8.9723107377
386.5,8.98060685771
387,8.98558399327
387.5,8.98890186024
388,8.99387832572
388.5,8.99719574615
389,9.00217154208
389.5,9.00714693652
390,9.00880531215
390.5,9.01378017155
391,9.01543836889
391.5,9.03036014075
392,9.03036014075
392.5,9.04859296811
393,9.04693566058
393.5,9.0552217541
394,9.05687883961
394.5,9.05687883961
395,9.06019287747
395.5,9.06019287747
396,9.06184982984
396.5,9.06350673784
397,9.06682042079
397.5,9.07344725461
398,9.08007337936
398.5,9.08172979981
399,9.08504250786
399.5,9.09001123794
400,9.09497956978
400.5,9.09166739279
401,9.10822650914
401.5,9.10491503948
402,9.11815985815
402.5,9.11650441036
403,9.11981526181
403.5,9.12809161836
404,9.13305690312
404.5,9.13967666581
405,9.14133149635
405.5,9.14298628286
406,9.15125955503
406.5,9.15125955503
407,9.15291407744
407.5,9.1562229903
408,9.16118602977
408.5,9.16449450294
409,9.16449450294
409.5,9.16614867361
410,9.16614867361
410.5,9.16614867361
411,9.16614867361
411.5,9.16780280035
412,9.16780280035
412.5,9.16780280035
413,9.17111092202
413.5,9.17607277518
414,9.17772663843
414.5,9.17772663843
415,9.17938045778
415.5,9.17938045778
416,9.18599529645
416.5,9.18103423326
417,9.19095596492
417.5,9.19095596492
418,9.18930245261
418.5,9.18764889645
419,9.1926094334
419.5,9.19756957588
420,9.19756957588
420.5,9.19426285805
421,9.19756957588
421.5,9.20252932407
422,9.19922286908
422.5,9.20583560391
423,9.20583560391
423.5,9.20087611847
424,9.20914170864
424.5,9.21244763832
425,9.21244763832
425.5,9.21575339301
426,9.21740620474
426.5,9.21740620474
427,9.21905897275
427.5,9.22401701446
428,9.22401701446
428.5,9.2223643776
429,9.22732215709
429.5,9.22732215709
430,9.23227954337
430.5,9.23227954337
431,9.2355842492
431.5,9.23723653663
432,9.24219313706
432.5,9.24384524993
433,9.25045326529
433.5,9.25045326529
434,9.25706058313
434.5,9.26201561401
435,9.26201561401
435.5,9.26201561401
436,9.26697025297
436.5,9.27027312795
437,9.26862171222
437.5,9.27027312795
438,9.27357582888
438.5,9.27357582888
439,9.2768783558
439.5,9.27522711409
440,9.28678489306
440.5,9.28513391218
441,9.28678489306
441.5,9.2950391459
442,9.2950391459
442.5,9.2966898662
443,9.2966898662
443.5,9.29834054309
444,9.29834054309
444.5,9.29999117657
445,9.29834054309
445.5,9.30164176667
446,9.30659327665
446.5,9.3049428167
447,9.30824369323
447.5,9.31154439631
448,9.31649512585
448.5,9.31979539555
449,9.31979539555
449.5,9.323095492
450,9.31649512585
450.5,9.32969516533
451,9.32969516533
451.5,9.32804531193
452,9.33464446592
452.5,9.33464446592
453,9.33794378336
453.5,9.34124292783
454,9.34124292783
454.5,9.34454189939
455,9.34454189939
455.5,9.34784069809
456,9.34949003263
456.5,9.34949003263
457,9.35608693892
457.5,9.35773605756
458,9.35773605756
458.5,9.35938513303
459,9.3676298632
459.5,9.36927867984
460,9.37092745336
460.5,9.37257618378
461,9.37587351531
461.5,9.37752211643
462,9.38081918945
462.5,9.38906111839
463,9.39565388686
463.5,9.40224596716
464,9.41213279826
464.5,9.41872316002
465,9.42860741529
465.5,9.43354896398
466,9.44837129644
466.5,9.45825092517
467,9.46648277317
467.5,9.47471355301
468,9.48129740835
468.5,9.48129740835
469,9.48952626757
469.5,9.49610858748
470,9.50433552873
470.5,9.51091631533
471,9.52407584657
471.5,9.53394370993
472,9.54545428546
472.5,9.56025054347
473,9.56682555666
473.5,9.57668680676
474,9.58490335218
474.5,9.59311884119
475,9.60461875261
475.5,9.61118920251
476,9.61283170958
476.5,9.62104361291
477,9.62925446341
477.5,9.63746426189
478,9.64238963634
478.5,9.65059775327
479,9.66701083817
479.5,9.67029295176
480,9.67849750226
480.5,9.68506038865
481,9.68670100558
481.5,9.68998211388
482,9.69162260527
482.5,9.69818415252
483,9.69490346254
483.5,9.69982443479
484,9.70802521923
484.5,9.70310487393
485,9.70474503081
485.5,9.69818415252
486,9.70474503081
486.5,9.70474503081
487,9.70310487393
487.5,9.70310487393
488,9.69490346254
488.5,9.68998211388
489,9.68834158066
489.5,9.68998211388
490,9.68998211388
490.5,9.68670100558
491,9.68834158066
491.5,9.68670100558
492,9.68834158066
492.5,9.68834158066
493,9.68998211388
493.5,9.69326305482
494,9.69654382843
494.5,9.69982443479
495,9.70474503081
495.5,9.71294518859
496,9.71458509486
496.5,9.71458509486
497,9.71622495939
497.5,9.71950456324
498,9.72114430257
498.5,9.72934237356
499,9.73426071585
499.5,9.73753940236
500,9.74409627557
500.5,9.7506524827
501,9.75720802416
501.5,9.76376290036
502,9.76704008912
502.5,9.77031711172
503,9.77359396821
503.5,9.77850894161
504,9.78342354154
504.5,9.78833776819
505,9.78833776819
505.5,9.79488949002
506,9.79652731688
